# Saving: 0.02 s
time,angle,angleD,angle_cos,angle_sin,position,positionD,Q,target_position
30486.81986427307,-2.037394041224261,4.716990922748346,-0.449850300108318,-0.8931039735061401,0.1618841201716738,0.0,-0.17232265,0.0
30486.83982849121,-1.9637629634057496,3.6815538909255374,-0.3829306071719621,-0.9237771106121392,0.1618841201716738,0.0,0.0018464135,0.0
30486.86012172699,-1.9070056742539807,2.837864457588437,-0.3299110493878712,-0.9440120229593444,0.1618841201716738,0.0,-0.36680275,0.0
30486.88041782379,-1.8655881929810687,2.070874063645615,-0.2905407009487417,-0.9568626343902314,0.1612892703862661,-0.0297424892703859,-0.69969714,0.0
30486.90070939064,-1.836442558011242,1.4572817484913598,-0.2625328863182561,-0.9649230454297408,0.1590798283261802,-0.110472103004293,-0.9161508,0.0
30486.920847415924,-1.824170711708157,0.6135923151542559,-0.2506720279799878,-0.968072070864768,0.1546609442060086,-0.2209442060085829,-0.97523904,0.0
30486.9413189888,-1.8257046924960425,-0.0766990393942821,-0.2521567364278418,-0.9676864059570436,0.1482875536480686,-0.3186695278969963,-0.9875091,0.0
30486.961550712585,-1.8425784811627843,-0.843689433337103,-0.2684486007129308,-0.9632940095190404,0.1404695278969957,-0.3909012875536482,-0.98249865,0.0
30486.981775045395,-1.8732580969204973,-1.5339807878856395,-0.2978711276428091,-0.9546060922269464,0.1317167381974249,-0.4376394849785396,-0.99391353,0.0
30487.002123594284,-1.9192775205570665,-2.3009711818284626,-0.3414706873745319,-0.9398924245167448,0.1223690987124463,-0.4673819742489276,-0.98731077,0.0
30487.02248883248,-1.980636752072492,-3.0679615757712795,-0.3984629736092192,-0.9171844191123716,0.1126815450643776,-0.484377682403433,-0.98844177,0.0
30487.042749404907,-2.0558018106788887,-3.758252930319823,-0.4662132108964542,-0.8846723924626666,0.1028240343347639,-0.4928755364806867,-0.98721635,0.0
30487.0630774498,-2.150908619527798,-4.755340442445483,-0.5481178620134081,-0.8364011055360046,0.0927965665236051,-0.5013733905579398,-0.9828639,0.0
30487.083179712296,-2.2521513515282505,-5.062136600022626,-0.6298460767010893,-0.7767199750645309,0.0826841201716738,-0.5056223175965674,-0.9876175,0.0
30487.103457689285,-2.3718018529833307,-5.982525072753995,-0.7180562849701622,-0.6959850369187899,0.072656652360515,-0.5013733905579398,-0.9883051,0.0
30487.12382054329,-2.497588277589953,-6.289321230331122,-0.7996979383776629,-0.6004025377648863,0.0625442060085837,-0.505622317596566,-0.9829534,0.0
30487.143976688385,-2.638714510075432,-7.056311624273962,-0.876199073473621,-0.4819493579661333,0.0523467811158798,-0.5098712446351943,-0.9755206,0.0
30487.16439461708,-2.787510646500339,-7.439806821245352,-0.9379651791831238,-0.346729466068245,0.0421493562231759,-0.5098712446351925,-0.957842,0.0
30487.184653759003,-2.9409087252889035,-7.6699039394282,-0.9799304730570416,-0.1993395795475723,0.0321218884120171,-0.5013733905579395,-0.93144023,0.0
30487.20484685898,-3.10044272722901,-7.97670009700535,-0.999153461245198,-0.0411383140361953,0.0220944206008583,-0.5013733905579411,-0.8979152,0.0
30487.224974393845,3.017072654858927,-8.283496254582454,-0.9922573969555112,0.1241984629014095,0.0121519313304721,-0.4971244635193128,-0.8472868,0.0
30487.245478391647,2.8560046721309345,-8.053399136399609,-0.9594961714103828,0.281721665920137,0.0022944206008583,-0.4928755364806862,-0.45754933,0.0
30487.265825748444,2.691868727827171,-8.206797215188196,-0.9005671508145856,0.4347169272914264,-0.0070532188841201,-0.4673819742489279,0.2654182,0.0
30487.285912036896,2.5308007450991785,-8.053399136399609,-0.8191941022788126,0.5735163666292448,-0.0141914163090128,-0.3569098712446349,0.7907034,0.0
30487.306047678,2.357460916068101,-8.666991451553864,-0.7080017122307437,0.7062107160602529,-0.017250643776824,-0.1529613733905578,0.9529507,0.0
30487.326523065567,2.184121087037023,-8.666991451553864,-0.5755894219778174,0.817738844196142,-0.0161459227467811,0.0552360515021459,0.8392116,0.0
30487.34664273262,2.010781258005946,-8.666991451553864,-0.4259258315057757,0.9047580815091476,-0.0124918454935622,0.182703862660944,0.6678425,0.0
30487.367156028748,1.8497132752779537,-8.053399136399655,-0.2753146141346223,0.9613541819974072,-0.0073931330472103,0.2549356223175977,0.19656412,0.0
30487.387256622314,1.699383158065161,-7.516505860639635,-0.1282327693816489,0.9917440984733475,-0.0022944206008583,0.2549356223175963,0.091686875,0.0
30487.407574653625,1.5628588679433388,-6.826214506091097,0.0079373755041989,0.9999684985388816,0.0019545064377682,0.2124463519313303,0.083263375,0.0
30487.427716732025,1.449344289639801,-5.675728915176867,0.1211536756082006,0.99263376271746,0.0052686695278969,0.1657081545064376,0.18501334,0.0
30487.448011398315,1.3511695192151203,-4.908738521234048,0.2178654103616158,0.9759788230120388,0.008157939914163,0.1444635193133045,0.499571,0.0
30487.468314886093,1.2729364990329524,-3.9116510091083816,0.2934749467992845,0.955966764904072,0.0115570815450643,0.1699570815450642,0.68412375,0.0
30487.488676786423,1.20697532515387,-3.298058693954144,0.3558477162642108,0.9345439544663192,0.015975965665236,0.2209442060085847,0.7068922,0.0
30487.50894713401,1.1563539591536438,-2.531068300011306,0.4026795692530193,0.915341009955417,0.0216695278969957,0.2846781115879825,0.23677425,0.0
30487.529181957245,1.154819978365758,-0.0766990393942819,0.404083210454023,0.9147222305318538,0.0273630901287553,0.2846781115879827,-0.2956882,0.0
30487.54956650734,1.1532859975778722,-0.0766990393942819,0.4054859008081997,0.9141012986785232,0.0312721030042918,0.1954506437768238,-0.77525884,0.0
30487.56983065605,1.1532859975778722,0.0,0.4054859008081997,0.9141012986785232,0.0320369098712446,0.0382403433476393,-0.90564036,0.0
30487.59014344216,1.154819978365758,0.0766990393942819,0.404083210454023,0.9147222305318538,0.0296575107296137,-0.1189699570815448,-0.9815429,0.0
30487.610455036163,1.154819978365758,0.0,0.404083210454023,0.9147222305318538,0.0251536480686695,-0.2251931330472113,-0.9986543,0.0
30487.630436182026,1.1532859975778722,-0.0766990393942819,0.4054859008081997,0.9141012986785232,0.018695278969957,-0.322918454935622,-0.85090816,0.0
30487.651025295258,1.1916355172750135,1.91747598485705,0.3701410123744269,0.9289755814651074,0.0109622317596566,-0.3866523605150211,-0.7825012,0.0
30487.671163082123,1.2545287295783245,3.144660615165561,0.3110214488413424,0.9504028926516545,0.0026343347639484,-0.4163948497854073,-0.42147765,0.0
30487.691450595856,1.3296937881847208,3.758252930319817,0.2387734193563504,0.9710753082067716,-0.005438626609442,-0.4036480686695275,0.408237,0.0
30487.71173524857,1.4248005970336308,4.755340442445483,0.1454776383966287,0.9893615399471216,-0.0111321888412017,-0.2846781115879825,0.999996,0.0
30487.73210954666,1.5321792521856257,5.368932757599739,0.038607477189717,0.9992544534326808,-0.0125768240343347,-0.0722317596566523,1.0,0.0
30487.752324581143,1.656431696004363,6.212622190936876,-0.0855307409432868,0.996335532014036,-0.0101124463519313,0.1232188841201722,1.0,0.0
30487.772640943527,1.786820062974642,6.51941834851397,-0.2143474824097295,0.9767574708107488,-0.0051836909871244,0.2464377682403431,0.99999994,0.0
30487.792813539505,1.9310142570358924,7.209709703062468,-0.3524781851284228,0.9358200302454384,0.0015296137339055,0.3356652360515,1.0,0.0
30487.813116312027,2.0859463166123424,7.746602978822567,-0.4926653785418963,0.870218837296786,0.0096025751072961,0.403648068669532,0.9999362,0.0
30487.833452939987,2.2485482801282206,8.130098175793892,-0.6270434168629867,0.7789843088078159,0.018695278969957,0.4546351931330468,0.9965734,0.0
30487.853712558743,2.428024032310841,8.973787609130992,-0.7560309041761194,0.6545359210392042,0.0280429184549356,0.4673819742489266,0.9789596,0.0
30487.874072790142,2.6121017268571176,9.203884727313838,-0.8630643122127578,0.5050940437034664,0.0377304721030042,0.484377682403433,0.7529758,0.0
30487.894093751907,2.800781363767052,9.433981845496684,-0.9424838006177718,0.3342518295732726,0.0471630901287553,0.4716309012875531,-0.0759592,0.0
30487.91451215744,2.9925289622527567,9.587379924285248,-0.9889105647187372,0.1485122721786587,0.0549811158798283,0.390901287553648,-1.0,0.0
30487.93478322029,-3.078966996198611,10.584467436410916,-0.9980396543457094,-0.0625847293954112,0.0584652360515021,0.1742060085836905,-1.0,0.0
30487.955123901367,-2.84733589722788,11.58155494853658,-0.9570179685710088,-0.2900286327799716,0.0571905579399141,-0.0637339055793991,-1.0,0.0
30487.97540330887,-2.6157047982571475,11.58155494853658,-0.8648785959805912,-0.501981089499038,0.0531115879828326,-0.2039484978540768,-0.9999961,0.0
30487.99582719803,-2.384073699286416,11.58155494853658,-0.7265430236793503,-0.6871209753332138,0.0470781115879828,-0.3016738197424891,-1.0,0.0
30488.01577949524,-2.163180465830884,11.044661672776607,-0.55834051793527,-0.8296118767422357,0.0396849785407725,-0.3696566523605147,-0.6743372,0.0
30488.036233901978,-1.94995713631478,10.661166475805196,-0.3701410123744268,-0.9289755814651074,0.031781974248927,-0.3951502145922742,-0.44251603,0.0
30488.05636715889,-1.7520736146775318,9.894176081862486,-0.1802860786711703,-0.9836142179926908,0.0243888412017167,-0.369656652360519,-0.08477247,0.0
30488.07678103447,-1.575665824070683,8.82038953034243,-0.0048694780315526,-0.999988144021568,0.0182703862660944,-0.3059227467811156,0.12294611,0.0
30488.09712576866,-1.4145978413426907,8.053399136399609,0.1555641055806607,-0.987825798941741,0.0141064377682403,-0.2081974248927036,0.397847,0.0
30488.117109060287,-1.2658017049177834,7.439806821245352,0.3002880452987925,-0.9538485675675308,0.0122369098712446,-0.0934763948497853,0.26132956,0.0
30488.13758492469,-1.130811395583847,6.749515466696814,0.4259258315057758,-0.9047580815091476,0.0122369098712446,0.0,0.07530469,0.0
30488.15770626068,-1.0096269133408813,6.059224112148278,0.5321766260149513,-0.8466333555461553,0.0125768240343347,0.0169957081545064,-0.33680603,0.0
30488.178307771683,-0.9007142774010007,5.445631796994022,0.6210502970388246,-0.7837707117186682,0.0121519313304721,-0.021244635193133,-0.3685058,0.0
30488.19852519036,-0.805607468552091,4.755340442445483,0.6926732252164984,-0.7212515532518277,0.0108772532188841,-0.0637339055793991,-0.5059647,0.0
30488.21885085106,-0.728908429157809,3.8349519697141,0.7459018937017938,-0.6660558272187683,0.0087527896995708,-0.1062231759656651,-0.04793855,0.0
30488.23901081085,-0.6629472552787263,3.298058693954125,0.7881817911772752,-0.6154424945164108,0.0061184549356223,-0.1317167381974248,0.80155754,0.0
30488.259227991104,-0.6015880237633007,3.0679615757712795,0.8244379089475357,-0.5659524134502961,0.0056935622317596,-0.021244635193133,0.8591143,0.0
30488.279618501663,-0.5386948114599894,3.144660615165561,0.8583789950170044,-0.5130160825096982,0.008157939914163,0.1232188841201715,0.89862674,0.0
30488.299805164337,-0.4742676183687925,3.221359654559844,0.8896274293705105,-0.4566870229288514,0.0127467811158798,0.2294420600858367,0.83526623,0.0
30488.320113658905,-0.4129083868533668,3.0679615757713137,0.9159576354931656,-0.4012749805080915,0.0187802575107296,0.3016738197424924,0.64035904,0.0
30488.3402094841,-0.3530831361258268,2.9912625363769973,0.9383110491972688,-0.3457923870681949,0.0256635193133047,0.3441630901287549,0.72400033,0.0
30488.36058831215,-0.2993938085498294,2.6844663787998697,0.9555154554094408,-0.2949410355879445,0.0328866952789699,0.3611587982832615,0.59115386,0.0
30488.380999565125,-0.2487724425496032,2.531068300011306,0.9692153941821492,-0.2462143774850312,0.0402798283261802,0.3696566523605147,0.66994554,0.0
30488.401090860367,-0.202753018913034,2.3009711818284595,0.9795159240916188,-0.2013667163434464,0.047587982832618,0.3654077253218882,0.60670936,0.0
30488.421503543854,-0.159801556852236,2.147573103039896,0.9872588795434876,-0.15912229498891,0.0550660944206008,0.3739055793991412,0.54595,0.0
30488.441802740097,-0.1168500947914381,2.147573103039896,0.9931807920642414,-0.1165843654811663,0.0622042918454935,0.3569098712446348,0.44610322,0.0
30488.46191048622,-0.0815685366700683,1.7640779060684857,0.9966751310070524,-0.0814781150498401,0.0690875536480686,0.3441630901287553,0.0017460807,0.0
30488.482275009155,-0.0478209593365842,1.6873788666742036,0.9988567958097954,-0.0478027349069979,0.0748660944206008,0.2889270386266092,0.15151256,0.0
30488.502597093586,-0.0217432859425283,1.303883669702794,0.999763624071061,-0.0217415727190586,0.0792849785407725,0.2209442060085836,-0.16426036,0.0
30488.522820949554,-0.001801535700015,0.997087512125666,0.9999983772349996,-0.0018015347255252,0.0824291845493562,0.1572103004291841,-0.168094,0.0
30488.543128490448,0.0120042913909557,0.690291354548538,0.9999279493593328,0.0120040030839424,0.0841287553648068,0.0849785407725323,-0.20600885,0.0
30488.56321310997,0.0212081761182696,0.460194236365697,0.9997751150622464,0.0212065862946447,0.0847236051502146,0.0297424892703862,-0.22624514,0.0
30488.58359193802,0.0288780800576978,0.3834951969714099,0.999583057222859,0.0288740664438274,0.084638626609442,-0.0042489270386268,-0.30658725,0.0
30488.60396313668,0.0350140032092403,0.3067961575771279,0.9993870724132388,0.0350068492340551,0.0840437768240343,-0.0297424892703859,-0.4177933,0.0
30488.624240875244,0.0380819647850116,0.1533980787885639,0.9992749696075112,0.0380727608127874,0.0824291845493562,-0.0807296137339055,-0.39326277,0.0
30488.6446492672,0.036547983997126,-0.0766990393942819,0.9993321967729702,0.0365398480143172,0.0797948497854077,-0.131716738197425,-0.38532987,0.0
30488.664813280106,0.0288780800576978,-0.3834951969714099,0.999583057222859,0.0288740664438274,0.0763957081545064,-0.169957081545064,-0.23357749,0.0
30488.68496823311,0.0242761376940408,-0.2300971181828459,0.9997053490403316,0.0242737533181117,0.07282660944206,-0.1784549356223177,0.09084114,0.0
30488.70528721809,0.0212081761182696,-0.1533980787885639,0.9997751150622464,0.0212065862946447,0.0700223175965665,-0.1402145922746774,-0.13624063,0.0
30488.72566318512,0.0212081761182696,0.0,0.9997751150622464,0.0212065862946447,0.0678978540772532,-0.1062231759656652,-0.22299938,0.0
30488.7458164692,0.0273440992698121,0.3067961575771279,0.9996261734109364,0.0273406918677678,0.0656034334763948,-0.1147210300429183,-0.3839052,0.0
30488.766201496124,0.0273440992698121,0.0,0.9996261734109364,0.0273406918677678,0.0630540772532188,-0.1274678111587982,-0.8151082,0.0
30488.78647232056,0.0258101184819265,-0.0766990393942819,0.999666937382068,0.0258072529564193,0.0589751072961373,-0.2039484978540772,-0.48623273,0.0
30488.80662727356,0.015072252966727,-0.5368932757599799,0.9998864157455492,0.0150716823055337,0.0537914163090128,-0.2591845493562258,-0.9413041,0.0
30488.82705926895,0.0028004066636419,-0.6135923151542559,0.9999960788638216,0.0028004030033823,0.047587982832618,-0.3101716738197421,-0.5613144,0.0
30488.847307920456,-0.0110054204273288,-0.690291354548538,0.9999394409718514,-0.0110051982672434,0.0407047210300429,-0.3441630901287553,-0.40760878,0.0
30488.86749124527,-0.0309471706698421,-0.997087512125666,0.9995211745309508,-0.0309422310809786,0.0340763948497854,-0.331416309012875,-0.29060623,0.0
30488.887868881226,-0.0432190169729273,-0.6135923151542559,0.9990662036514166,-0.0432055635485297,0.0281278969957081,-0.2974248927038624,0.18519203,0.0
30488.90800905228,-0.0493549401244698,-0.3067961575771279,0.9987822921583348,-0.0493349051984796,0.023793991416309,-0.2166952789699569,0.10091821,0.0
30488.928348064423,-0.0493549401244698,0.0,0.9987822921583348,-0.0493349051984796,0.021244635193133,-0.1274678111587982,0.23331682,0.0
30488.94885039329,-0.0462869785486985,0.1533980787885639,0.9989289490547298,-0.0462704521310634,0.019969957081545,-0.0637339055793991,0.13091215,0.0
30488.968909025192,-0.0370830938213847,0.4601942363656919,0.9993125008666056,-0.0370745952335321,0.0198,-0.0084978540772532,0.15690672,0.0
30488.98923540116,-0.0294131898819565,0.3834951969714099,0.9995674633154116,-0.0294089489984467,0.0198849785407725,0.0042489270386265,-0.13476333,0.0
30489.00965929032,-0.0217432859425283,0.3834951969714099,0.999763624071061,-0.0217415727190586,0.0196300429184549,-0.0127467811158797,0.00033336921,0.0
30489.029680252075,-0.0156073627909857,0.3067961575771279,0.9998782075856676,-0.0156067291663757,0.0195450643776824,-0.0042489270386266,-0.2678547,0.0
30489.04998445511,-0.0125394012152144,0.1533980787885639,0.9999213827387158,-0.0125390726090316,0.0191201716738197,-0.0212446351931329,-0.49864185,0.0
30489.0703868866,-0.0094714396394432,0.1533980787885639,0.999955146250892,-0.0094712980291606,0.0173356223175965,-0.0892274678111587,-0.4470546,0.0
30489.09069991112,-0.0202093051546427,-0.5368932757599739,0.9997957989426404,-0.020207929548755,0.0144463519313304,-0.1444635193133047,-0.5387958,0.0
30489.111010551453,-0.0278792090940709,-0.3834951969714099,0.999611400021077,-0.027875597713817,0.0105373390557939,-0.1954506437768238,-0.01878038,0.0
30489.131329774857,-0.0370830938213847,-0.4601942363656919,0.9993125008666056,-0.0370745952335321,0.0067982832618025,-0.1869527896995706,-0.2500836,0.0
30489.151416540142,-0.0462869785486985,-0.4601942363656919,0.9989289490547298,-0.0462704521310634,0.0036540772532188,-0.1572103004291844,0.009683254,0.0
30489.17173409462,-0.0539568824881268,-0.3834951969714099,0.9985446805455888,-0.0539307051141353,0.0009347639484978,-0.1359656652360513,0.30260918,0.0
30489.19207382202,-0.057024844063898,-0.1533980787885639,0.9983745241326892,-0.0569939432117709,-0.0002549356223175,-0.0594849785407724,0.34458658,0.0
30489.212413311005,-0.0554908632760124,0.0766990393942837,0.998460777076467,-0.055462389417133,0.0,0.0127467811158801,0.35124546,0.0
30489.23281311989,-0.0493549401244698,0.3067961575771279,0.9987822921583348,-0.0493349051984796,0.0011896995708154,0.0594849785407724,0.46325403,0.0
30489.25282883644,-0.0432190169729273,0.3067961575771279,0.9990662036514166,-0.0432055635485297,0.0033991416309012,0.1104721030042917,0.68336844,0.0
30489.27315235138,-0.0263452283061852,0.8436894333371018,0.9996529845445592,-0.0263421808352133,0.0072231759656652,0.1912017167381972,0.41289216,0.0
30489.29347229004,-0.0079374588515575,0.920388472731384,0.9999684985388816,-0.0079373755041987,0.011981974248927,0.2379399141630899,0.13926816,0.0
30489.31373858452,0.0120042913909557,0.997087512125666,0.9999279493593328,0.0120040030839424,0.0164858369098712,0.22519313304721,0.036485374,0.0
30489.33409190178,0.0242761376940408,0.6135923151542559,0.9997053490403316,0.0242737533181117,0.0200549356223175,0.1784549356223174,-0.26829785,0.0
30489.354383945465,0.0350140032092403,0.5368932757599739,0.9993870724132388,0.0350068492340551,0.0221793991416309,0.1062231759656652,0.022077844,0.0
30489.374722242355,0.0380819647850116,0.1533980787885639,0.9992749696075112,0.0380727608127874,0.0232841201716738,0.0552360515021457,-0.35517085,0.0
30489.394708395004,0.036547983997126,-0.0766990393942819,0.9993321967729702,0.0365398480143172,0.0233690987124463,0.0042489270386266,-0.03885294,0.0
30489.415152549744,0.0380819647850116,0.0766990393942819,0.9992749696075112,0.0380727608127874,0.0230291845493562,-0.0169957081545064,0.07023323,0.0
30489.435468673702,0.0380819647850116,0.0,0.9992749696075112,0.0380727608127874,0.0232841201716738,0.0127467811158797,-0.34163424,0.0
30489.45574903488,0.0396159455728973,0.0766990393942819,0.9992153910515224,0.0396055840223737,0.0228592274678111,-0.0212446351931329,-0.19383703,0.0
30489.4760158062,0.0380819647850116,-0.0766990393942819,0.9992749696075112,0.0380727608127874,0.0216695278969957,-0.0594849785407725,-0.41653818,0.0
30489.49614238739,0.031946041633469,-0.3067961575771279,0.9994897686072266,0.0319406081575255,0.0198849785407725,-0.0892274678111587,-0.55732954,0.0
30489.51662945748,0.0242761376940408,-0.3834951969714099,0.9997053490403316,0.0242737533181117,0.0168257510729613,-0.1529613733905578,-0.45438367,0.0
30489.53680205345,0.0120042913909557,-0.6135923151542559,0.9999279493593328,0.0120040030839424,0.0128317596566523,-0.1996995708154504,-0.3465075,0.0
